SampleIdent,,/
Title1,Configuration=Plataforma Reflexion-Transmision spinner, Owner=User-1, Creation date=2/3/2023 7:20:03 AM,/
Title2,Goniometer=Omega/2Theta; Minimum step size 2Theta:0.0001; Minimum step size Omega:0.0001,/
DiffrType,XPERT,/
DiffrNumber,1,/
Anode,Cu,/
LabdaAlpha1, 1.540598,/
LabdaAlpha2, 1.544426,/
RatioAlpha21, 0.50000,/
DivergenceSlit,Fixed, 1/2,/
ReceivingSlit,UNDEFINED,/
MonochromatorUsed,NO,/
GeneratorVoltage,  45,/
TubeCurrent,  40,/
FileDateTime,03-jun-2025 10:45,/
DataAngleRange,  10.02343,  89.98685,/
ScanStepSize, 0.02626056501,/
ScanType,CONTINUOUS,/
ScanStepTime, 47.94,/
RawScan
    3819,    3775,    3890,    3829,    3764,    3811,    3894,    3752
    3827,    3784,    3791,    3734,    3708,    3703,    3680,    3752
    3709,    3764,    3666,    3637,    3648,    3762,    3688,    3581
    3610,    3551,    3683,    3643,    3622,    3558,    3535,    3674
    3630,    3591,    3486,    3441,    3484,    3487,    3531,    3494
    3552,    3455,    3414,    3399,    3399,    3502,    3379,    3449
    3457,    3455,    3319,    3266,    3347,    3443,    3514,    3166
    3300,    3224,    3264,    3294,    3252,    3247,    3247,    3235
    3231,    3224,    3289,    3183,    3160,    3230,    3262,    3156
    3199,    3137,    3135,    3094,    3138,    3099,    3183,    2964
    3193,    3076,    3001,    3077,    3015,    3013,    3111,    3084
    2974,    3081,    3075,    2940,    2924,    2891,    2815,    2961
    2973,    3048,    2957,    2928,    2892,    2939,    2933,    2923
    2873,    2843,    2781,    2875,    2878,    2833,    2883,    2803
    2896,    2739,    2793,    2790,    2708,    2925,    2721,    2645
    2866,    2648,    2692,    2722,    2706,    2663,    2726,    2664
    2600,    2610,    2734,    2549,    2638,    2588,    2550,    2587
    2568,    2608,    2617,    2553,    2719,    2531,    2589,    2501
    2496,    2577,    2524,    2602,    2548,    2573,    2535,    2644
    2515,    2467,    2513,    2375,    2553,    2557,    2477,    2441
    2493,    2455,    2422,    2281,    2449,    2511,    2371,    2435
    2381,    2293,    2329,    2330,    2493,    2481,    2293,    2363
    2319,    2380,    2307,    2452,    2411,    2259,    2401,    2296
    2314,    2485,    2344,    2423,    2376,    2275,    2420,    2435
    2379,    2380,    2305,    2582,    2652,    2639,    2571,    2674
    2871,    2953,    3039,    3147,    3466,    3734,    4111,    4606
    5082,    5875,    6721,    7667,    8888,    9656,   10105,    9839
    8668,    7525,    5989,    4856,    4159,    3732,    3213,    3027
    2821,    2589,    2565,    2541,    2388,    2285,    2373,    2287
    2252,    2253,    2249,    2161,    2214,    2205,    2171,    2158
    2061,    2083,    2007,    2094,    2005,    2049,    2016,    1937
    1973,    2057,    2003,    1936,    1880,    1907,    1911,    1983
    1963,    1937,    1872,    1912,    1871,    1897,    1902,    1910
    1930,    1934,    1829,    1829,    1886,    1953,    1746,    1848
    1827,    1808,    1848,    1816,    1764,    1872,    1800,    1744
    1803,    1765,    1841,    1791,    1803,    1843,    1798,    1817
    1818,    1796,    1893,    1751,    1782,    1801,    1855,    1782
    1781,    1848,    1818,    1736,    1726,    1718,    1722,    1824
    1722,    1765,    1699,    1789,    1619,    1584,    1667,    1716
    1612,    1666,    1706,    1640,    1675,    1660,    1656,    1625
    1675,    1662,    1603,    1595,    1750,    1629,    1623,    1554
    1562,    1601,    1546,    1592,    1635,    1493,    1626,    1560
    1593,    1589,    1561,    1530,    1608,    1626,    1608,    1501
    1536,    1557,    1527,    1567,    1559,    1514,    1588,    1511
    1545,    1641,    1539,    1523,    1566,    1626,    1429,    1504
    1482,    1591,    1513,    1494,    1490,    1542,    1479,    1411
    1514,    1495,    1506,    1495,    1466,    1491,    1453,    1486
    1485,    1459,    1475,    1511,    1451,    1524,    1398,    1449
    1550,    1392,    1440,    1408,    1428,    1432,    1395,    1401
    1460,    1504,    1453,    1445,    1441,    1420,    1459,    1440
    1346,    1420,    1412,    1425,    1423,    1454,    1376,    1384
    1361,    1436,    1361,    1333,    1377,    1395,    1414,    1360
    1402,    1343,    1357,    1383,    1366,    1353,    1402,    1417
    1317,    1329,    1395,    1312,    1333,    1366,    1423,    1329
    1274,    1327,    1385,    1374,    1332,    1325,    1345,    1314
    1342,    1260,    1297,    1309,    1378,    1297,    1270,    1281
    1322,    1350,    1335,    1262,    1250,    1266,    1250,    1268
    1304,    1264,    1321,    1272,    1308,    1306,    1321,    1333
    1294,    1345,    1327,    1367,    1288,    1311,    1327,    1285
    1251,    1262,    1218,    1320,    1202,    1326,    1166,    1252
    1243,    1244,    1231,    1287,    1261,    1242,    1177,    1185
    1178,    1190,    1257,    1208,    1239,    1221,    1147,    1175
    1239,    1157,    1173,    1185,    1148,    1185,    1166,    1187
    1137,    1230,    1194,    1190,    1218,    1168,    1146,    1177
    1184,    1184,    1226,    1154,    1218,    1187,    1234,    1196
    1114,    1124,    1118,    1164,    1152,    1147,    1161,    1099
    1117,    1295,    1120,    1168,    1178,    1189,    1189,    1155
    1145,    1198,    1141,    1194,    1206,    1212,    1177,    1276
    1295,    1342,    1205,    1278,    1300,    1266,    1201,    1156
    1174,    1154,    1220,    1135,    1085,    1211,    1117,    1144
    1167,    1063,    1160,    1117,    1123,    1070,    1072,    1084
    1126,    1128,    1090,    1139,    1122,    1088,    1134,    1129
    1155,    1126,    1137,    1122,    1133,    1109,    1162,    1074
    1066,    1101,    1021,    1120,    1087,    1077,    1009,    1068
    1086,    1023,    1114,    1065,    1055,    1161,    1057,    1107
    1114,    1172,    1140,    1151,    1151,    1039,    1135,    1035
    1053,    1072,    1056,    1107,    1011,    1051,    1097,    1076
    1040,    1065,    1047,    1081,    1121,    1107,    1058,    1088
    1158,    1092,    1053,    1124,    1117,    1102,    1156,    1168
    1114,    1218,    1144,    1190,    1160,    1242,    1213,    1252
    1287,    1259,    1349,    1467,    1504,    1739,    1723,    1912
    2180,    2417,    2675,    3103,    3568,    4237,    4716,    5469
    6229,    6332,    6375,    6309,    5706,    5100,    4458,    3772
    3363,    2981,    2704,    2463,    2319,    2270,    2333,    2298
    2362,    2633,    2823,    3115,    3545,    4128,    4940,    5923
    6855,    8059,    8777,    9360,    9231,    8746,    7681,    6605
    5497,    4523,    3691,    3073,    2648,    2246,    2006,    1865
    1663,    1580,    1538,    1412,    1352,    1260,    1225,    1191
    1212,    1144,    1079,    1075,    1116,    1070,    1039,    1123
    1076,    1063,    1063,     989,     998,     999,    1022,    1010
     968,    1008,    1034,     970,    1015,    1025,     901,     952
     967,     979,     944,     943,     949,     942,     896,     885
     914,     979,    1004,     928,     965,     938,     932,     936
     913,     917,     967,     920,     915,     962,     962,     921
     898,     978,     899,     940,     920,     928,     908,     901
     889,    1023,     951,     957,     996,     932,     972,     990
    1045,    1109,    1137,    1114,    1134,    1222,    1182,    1163
    1163,    1025,    1036,     975,     983,     937,     912,     877
     897,     836,     900,     901,     847,     902,     853,     877
     837,     900,     856,     897,     855,     883,     901,     884
     910,     867,     847,     930,     888,     944,     919,     928
     943,    1003,    1002,    1046,    1036,    1079,    1164,    1223
    1316,    1484,    1599,    1729,    1808,    1904,    1990,    2028
    1887,    1717,    1653,    1537,    1398,    1214,    1209,    1070
    1061,     968,     944,     926,     879,     912,     922,     834
     833,     827,     801,     815,     808,     808,     801,     841
     798,     777,     843,     825,     850,     771,     781,     828
     787,     774,     781,     775,     778,     821,     744,     807
     847,     742,     781,     761,     728,     757,     739,     720
     752,     748,     769,     726,     765,     743,     767,     718
     757,     792,     725,     719,     678,     728,     737,     747
     747,     742,     740,     693,     736,     730,     681,     779
     740,     778,     759,     745,     779,     787,     719,     713
     718,     781,     699,     755,     796,     756,     773,     724
     721,     780,     738,     701,     694,     726,     743,     770
     688,     798,     689,     711,     752,     718,     676,     689
     679,     726,     732,     721,     710,     713,     700,     724
     682,     674,     721,     766,     778,     734,     689,     680
     699,     697,     721,     653,     671,     695,     742,     736
     670,     683,     745,     725,     698,     734,     658,     710
     656,     674,     650,     750,     717,     634,     728,     723
     742,     713,     696,     750,     680,     719,     736,     760
     780,     770,     754,     798,     749,     795,     880,     892
     951,    1010,    1035,    1085,    1132,    1135,    1192,    1153
    1152,    1084,    1038,    1015,     856,     842,     801,     750
     831,     739,     687,     758,     663,     739,     642,     710
     649,     694,     699,     669,     635,     645,     650,     677
     689,     657,     669,     634,     713,     648,     640,     663
     642,     625,     705,     632,     634,     688,     626,     637
     665,     634,     631,     621,     637,     678,     640,     619
     583,     630,     619,     600,     617,     665,     643,     656
     686,     618,     671,     656,     630,     651,     648,     596
     602,     655,     597,     620,     632,     654,     639,     662
     649,     614,     629,     668,     677,     627,     630,     651
     626,     679,     693,     726,     675,     652,     657,     676
     675,     654,     694,     636,     684,     648,     680,     620
     660,     719,     699,     681,     727,     733,     766,     752
     696,     758,     737,     788,     842,     808,     854,     942
     946,     969,    1051,    1077,    1185,    1300,    1454,    1544
    1754,    1957,    2262,    2667,    2911,    3308,    3769,    4326
    4723,    4982,    5121,    5088,    4813,    4448,    4059,    3669
    3261,    2883,    2463,    2113,    1908,    1650,    1401,    1316
    1196,    1183,    1075,    1004,     875,     913,     897,     854
     842,     780,     806,     730,     727,     739,     706,     676
     644,     696,     654,     672,     683,     633,     680,     675
     612,     623,     640,     594,     629,     632,     612,     609
     590,     620,     579,     618,     601,     641,     652,     636
     607,     592,     618,     559,     683,     545,     601,     592
     622,     616,     580,     591,     618,     610,     612,     575
     587,     606,     630,     637,     590,     598,     605,     638
     595,     587,     637,     618,     598,     658,     593,     607
     675,     608,     668,     625,     666,     654,     649,     716
     725,     742,     789,     798,     868,     923,    1011,    1098
    1090,    1195,    1172,    1258,    1309,    1274,    1220,    1150
    1120,    1048,     968,     929,     885,     821,     854,     767
     709,     671,     676,     674,     643,     645,     689,     618
     672,     684,     635,     698,     641,     702,     641,     687
     596,     639,     602,     612,     553,     601,     596,     585
     538,     602,     583,     597,     575,     555,     562,     582
     595,     576,     602,     555,     582,     605,     586,     582
     569,     556,     598,     603,     606,     622,     637,     699
     600,     635,     638,     624,     612,     585,     559,     593
     594,     561,     566,     555,     563,     569,     542,     538
     586,     549,     549,     610,     587,     561,     629,     544
     566,     571,     562,     566,     534,     597,     563,     504
     543,     538,     552,     508,     549,     548,     515,     550
     546,     557,     561,     529,     524,     555,     490,     545
     526,     536,     532,     489,     566,     521,     581,     477
     506,     531,     553,     527,     563,     524,     520,     568
     552,     551,     521,     535,     464,     516,     546,     512
     539,     513,     538,     572,     512,     562,     524,     542
     560,     536,     546,     559,     540,     572,     556,     520
     517,     566,     540,     511,     508,     559,     592,     513
     539,     530,     560,     576,     581,     571,     607,     553
     579,     590,     638,     672,     678,     710,     713,     726
     762,     793,     849,     862,     918,     977,    1139,    1134
    1256,    1347,    1439,    1436,    1365,    1310,    1257,    1226
    1134,    1075,     969,     934,     859,     826,     769,     752
     740,     754,     712,     758,     718,     712,     759,     719
     686,     703,     657,     723,     781,     732,     806,     793
     836,     823,     894,     978,    1014,    1088,    1149,    1221
    1323,    1496,    1506,    1721,    1843,    2013,    2151,    2242
    2271,    2336,    2408,    2484,    2515,    2499,    2514,    2619
    2779,    2861,    3033,    3282,    3434,    3764,    3864,    3876
    3997,    3852,    3672,    3474,    3358,    3121,    2799,    2594
    2378,    2032,    1824,    1600,    1461,    1419,    1220,    1131
    1107,    1038,     944,     919,     845,     839,     802,     772
     734,     735,     732,     677,     689,     688,     677,     640
     652,     696,     699,     693,     677,     709,     762,     747
     804,     766,     906,     939,     992,     973,    1081,    1077
    1032,    1026,     926,     980,     856,     875,     856,     772
     787,     727,     703,     655,     661,     615,     606,     572
     571,     554,     550,     561,     521,     514,     561,     472
     434,     508,     476,     532,     513,     490,     493,     477
     486,     504,     484,     503,     483,     521,     494,     495
     480,     474,     467,     482,     536,     464,     504,     455
     464,     469,     508,     466,     485,     450,     453,     473
     453,     487,     466,     515,     441,     456,     434,     451
     440,     463,     441,     499,     405,     473,     502,     445
     421,     433,     487,     437,     400,     431,     429,     464
     463,     496,     423,     438,     461,     470,     472,     435
     394,     391,     455,     403,     438,     458,     502,     407
     431,     450,     404,     532,     429,     407,     416,     435
     446,     435,     443,     414,     426,     459,     456,     412
     425,     437,     461,     415,     422,     429,     439,     445
     467,     452,     421,     438,     455,     468,     444,     460
     445,     435,     431,     421,     481,     502,     435,     512
     481,     443,     428,     465,     419,     414,     448,     420
     452,     429,     436,     457,     389,     463,     447,     449
     422,     418,     419,     406,     445,     443,     408,     408
     456,     411,     453,     445,     448,     474,     480,     448
     419,     425,     437,     395,     425,     490,     434,     462
     468,     495,     432,     495,     471,     548,     551,     468
     544,     500,     545,     609,     642,     593,     646,     684
     706,     808,     755,     889,     954,    1021,    1149,    1238
    1334,    1345,    1461,    1384,    1429,    1423,    1372,    1331
    1240,    1214,    1118,    1055,     957,     817,     829,     792
     704,     674,     666,     605,     671,     574,     577,     591
     533,     545,     587,     525,     563,     525,     543,     565
     608,     612,     673,     660,     682,     749,     672,     838
     838,     903,     934,     915,     872,     905,     841,     785
     862,     749,     811,     738,     746,     607,     590,     652
     561,     587,     577,     552,     585,     561,     531,     563
     552,     525,     541,     544,     530,     490,     496,     476
     468,     484,     487,     465,     443,     451,     472,     437
     472,     488,     462,     495,     473,     509,     453,     488
     493,     480,     503,     517,     564,     601,     595,     609
     630,     626,     644,     708,     681,     650,     700,     709
     673,     654,     617,     596,     571,     561,     566,     548
     511,     458,     544,     475,     432,     463,     512,     507
     488,     450,     452,     462,     470,     484,     417,     465
     537,     503,     494,     507,     532,     591,     536,     549
     631,     607,     624,     664,     632,     618,     613,     624
     610,     561,     550,     526,     489,     520,     481,     536
     473,     470,     463,     434,     398,     438,     463,     460
     453,     407,     418,     399,     379,     428,     383,     407
     412,     431,     355,     427,     424,     437,     428,     404
     407,     410,     373,     390,     371,     377,     386,     416
     382,     355,     379,     414,     339,     388,     358,     371
     414,     410,     362,     373,     400,     380,     370,     390
     347,     412,     381,     375,     367,     366,     394,     397
     371,     381,     353,     425,     380,     371,     379,     363
     382,     407,     382,     381,     364,     380,     431,     392
     358,     355,     376,     389,     344,     387,     390,     399
     410,     372,     362,     416,     383,     388,     419,     362
     389,     390,     393,     387,     345,     365,     366,     370
     444,     397,     408,     381,     378,     344,     346,     404
     376,     367,     377,     421,     351,     378,     397,     382
     388,     352,     417,     395,     361,     398,     346,     394
     383,     422,     388,     357,     409,     353,     373,     380
     396,     403,     358,     394,     398,     397,     368,     347
     388,     374,     408,     405,     385,     383,     393,     411
     414,     423,     383,     386,     403,     403,     430,     409
     427,     407,     389,     455,     416,     429,     448,     390
     434,     430,     484,     435,     476,     463,     483,     525
     534,     536,     581,     568,     633,     649,     674,     676
     717,     775,     793,     882,     900,     944,    1024,    1028
    1050,    1127,    1087,    1032,    1051,    1009,    1000,     995
     907,     907,     821,     844,     785,     748,     736,     638
     666,     620,     572,     592,     578,     547,     579,     505
     553,     497,     473,     522,     540,     523,     550,     520
     589,     603,     555,     588,     571,     613,     689,     649
     616,     630,     666,     639,     627,     611,     558,     594
     552,     539,     578,     518,     507,     534,     544,     523
     429,     435,     490,     447,     450,     435,     413,     431
     440,     440,     368,     411,     442,     400,     432,     407
     447,     453,     449,     414,     455,     415,     441,     443
     472,     467,     445,     401,     423,     424,     460,     430
     371,     371,     428,     449,     393,     425,     413,     360
     387,     396,     366,     388,     379,     334,     380,     356
     380,     343,     324,     356,     381,     378,     330,     364
     359,     324,     336,     358,     348,     352,     327,     385
     333,     387,     335,     396,     396,     351,     354,     365
     359,     384,     332,     388,     361,     375,     400,     375
     344,     340,     362,     354,     343,     393,     374,     331
     360,     346,     370,     384,     367,     379,     380,     377
     384,     409,     396,     410,     384,     359,     376,     348
     392,     370,     362,     389,     361,     359,     360,     363
     384,     385,     360,     365,     374,     391,     366,     421
     363,     379,     389,     392,     335,     359,     370,     348
     410,     371,     420,     423,     393,     421,     415,     401
     435,     433,     437,     401,     421,     480,     483,     485
     474,     503,     517,     546,     572,     575,     641,     682
     696,     688,     734,     744,     835,     899,     850,     928
     890,     959,     921,     895,     902,     874,     860,     888
     767,     748,     730,     713,     626,     672,     595,     609
     552,     545,     515,     511,     477,     467,     490,     475
     510,     478,     465,     470,     426,     450,     438,     440
     421,     443,     503,     477,     473,     445,     459,     474
     560,     481,     503,     511,     532,     530,     529,     577
     492,     547,     544,     578,     543,     550,     512,     548
     521,     495,     513,     458,     463,     444,     422,     441
     400,     446,     400,     425,     399,     412,     408,     423
     391,     413,     386,     355,     363,     369,     395,     386
     345,     383,     373,     394,     369,     377,     407,     369
     378,     345,     367,     378,     357,     371,     410,     379
     365,     364,     377,     375,     379,     359,     373,     351
     407,     395,     394,     397,     367,     366,     421,     377
     399,     402,     400,     397,     429,     395,     381,     429
     438,     440,     430,     386,     451,     397,     428,     395
     433,     405,     423,     407,     393,     403,     388,     383
     367,     405,     361,     402,     400,     371,     392,     362
     334,     367,     388,     359,     378,     359,     363,     374
     324,     384,     374,     343,     388,     322,     317,     361
     341,     344,     371,     355,     356,     374,     372,     337
     334,     332,     352,     348,     363,     329,     341,     374
     373,     327,     336,     358,     339,     332,     392,     308
     369,     343,     353,     365,     349,     351,     371,     399
     366,     375,     372,     341,     362,     344,     357,     357
     384,     366,     385,     313,     366,     359,     370,     435
     382,     365,     399,     360,     373,     401,     411,     395
     384,     421,     427,     426,     427,     423,     469,     502
     490,     548,     581,     554,     600,     563,     616,     625
     652,     629,     628,     668,     650,     662,     641,     649
     659,     628,     640,     656,     604,     549,     658,     668
     649,     643,     634,     687,     689,     672,     729,     707
     677,     701,     657,     666,     646,     648,     668,     623
     678,     579,     673,     638,     576,     571,     592,     574
     623,     592,     622,     629,     674,     615,     634,     706
     661,     696,     732,     772,     766,     812,     830,     857
     856,     918,     948,     920,     913,    1062,     986,    1006
    1014,    1009,    1029,    1015,    1017,     961,    1012,     993
     976,     987,     918,     926,     819,     855,     769,     795
     744,     793,     702,     653,     688,     668,     630,     640
     633,     580,     546,     567,     586,     520,     545,     548
     520,     521,     520,     551,     503,     538,     507,     530
     505,     529,     519,     526,     518,     528,     533,     451
     502,     526,     452,     496,     461,     425,     515,     416
     449,     421,     426,     428,     383,     383,     377,     392
     366,     420,     386,     363,     371,     364,     364,     367
     402,     353,     358,     356,     351,     372,     386,     341
     391,     332,     331,     329,     346,     329,     344,     333
     325,     353,     361,     362,     349,     341,     343,     295
     314,     336,     345,     330,     325,     367,     300,     332
     341,     353,     350,     342,     366,     318,     317,     307
     345,     342,     325,     378,     330,     357,     354,     355
     334,     350,     328,     340,     345,     341,     308,     333
     322,     366,     306,     327,     363,     343,     365,     334
     363,     329,     339,     329,     319,     354,     363,     349
     335,     367,     345,     371,     348,     318,     332,     354
     350,     366,     319,     362,     370,     381,     396,     353
     342,     356,     355,     423,     345,     411,     425,     393
     396,     418,     416,     403,     411,     436,     454,     462
     488,     487,     516,     531,     492,     549,     578,     567
     572,     574,     565,     576,     554,     482,     532,     535
     552,     520,     483,     522,     458,     467,     433,     474
     353,     436,     414,     425,     388,     359,     374,     382
     398,     371,     350,     355,     358,     374,     317,     334
     333,     334,     316,     353,     333,     352,     352,     352
     350,     335,     341,     364,     373,     318,     335,     344
     327,     392,     356,     332,     299,     313,     358,     340
     334,     330,     304,     316,     342,     337,     351,     348
     370,     347,     329,     316,     321,     315,     305,     344
     307,     341,     346,     325,     356,     347,     300,     316
     339,     342,     335,     347,     325,     357,     336,     346
     336,     376,     347,     367,     368,     386,     364,     359
     398,     360,     386,     369,     333,     369,     406,     397
     411,     386,     353,     387,     366,     414,     359,     374
     351,     379,     362,     372,     424,     343,     348,     358
     366,     385,     361,     363,     340,     373,     358,     361
     314,     327,     333,     355,     362,     370,     380,     343
     330,     346,     308,     335,     347,     380,     345,     329
     360,     330,     357,     327,     313,     339,     320,     357
     316,     335,     330,     365,     350,     327,     333,     344
     359,     342,     334,     312,     339,     329,     318,     373
     376,     316,     340,     330,     325,     296,     336,     340
     342,     335,     335,     320,     287,     340,     321,     326
     323,     308,     312,     354,     308,     327,     281,     346
     315,     337,     318,     340,     328,     308,     295,     368
     336,     342,     329,     349,     329,     364,     323,     342
     352,     348,     389,     355,     334,     347,     356,     334
     351,     351,     366,     332,     362,     383,     410,     405
     399,     395,     427,     410,     439,     454,     448,     468
     498,     480,     533,     473,     516,     546,     549,     566
     601,     591,     577,     622,     599,     623,     664,     649
     627,     609,     628,     601,     598,     597,     567,     566
     533,     550,     580,     550,     537,     476,     429,     450
     430,     389,     431,     402,     403,     405,     447,     430
     406,     388,     450,     383,     421,     402,     376,     380
     409,     409,     434,     424,     377,     352,     404,     383
     414,     415,     443,     478,     420,     425,/
